5 336
5.02 349
5.04 355
5.06 340
5.08 345
5.10 358
5.12 349
5.14 340
5.16 339
5.18 339
5.20 390
5.22 354
5.24 379
5.26 368
5.28 381
5.30 346
5.32 354
5.34 383
5.36 384
5.38 411
5.40 389
5.42 397
5.44 374
5.46 371
5.48 373
5.50 399
5.52 423
5.54 360
5.56 395
5.58 405
5.60 396
5.62 399
5.64 363
5.66 374
5.68 419
5.70 439
5.72 418
5.74 417
5.76 419
5.78 401
5.80 452
5.82 406
5.84 412
5.86 412
5.88 451
5.90 470
5.92 460
5.94 460
5.96 461
5.98 483
6.00 417
6.02 425
6.04 449
6.06 425
6.08 431
6.10 435
6.12 506
6.14 487
6.16 502
6.18 474
6.20 459
6.22 459
6.24 458
6.26 488
6.28 473
6.30 473
6.32 488
6.34 482
6.36 499
6.38 467
6.40 492
6.42 480
6.44 470
6.46 451
6.48 497
6.50 501
6.52 479
6.54 476
6.56 493
6.58 469
6.60 497
6.62 514
6.64 500
6.66 501
6.68 517
6.70 469
6.72 515
6.74 497
6.76 466
6.78 511
6.80 523
6.82 498
6.84 509
6.86 526
6.88 536
6.90 507
6.92 501
6.94 516
6.96 541
6.98 527
7.00 501
7.02 524
7.04 494
7.06 491
7.08 554
7.10 494
7.12 500
7.14 509
7.16 521
7.18 558
7.20 511
7.22 508
7.24 551
7.26 560
7.28 540
7.30 556
7.32 586
7.34 522
7.36 531
7.38 524
7.40 542
7.42 573
7.44 530
7.46 565
7.48 577
7.50 531
7.52 562
7.54 582
7.56 521
7.58 566
7.60 550
7.62 522
7.64 529
7.66 575
7.68 566
7.70 508
7.72 561
7.74 562
7.76 568
7.78 602
7.80 552
7.82 525
7.84 608
7.86 558
7.88 570
7.90 544
7.92 569
7.94 578
7.96 613
7.98 582
8.00 574
8.02 551
8.04 524
8.06 585
8.08 570
8.10 624
8.12 560
8.14 620
8.16 615
8.18 585
8.20 573
8.22 597
8.24 643
8.26 631
8.28 660
8.30 593
8.32 614
8.34 630
8.36 643
8.38 610
8.40 660
8.42 620
8.44 590
8.46 621
8.48 654
8.50 636
8.52 701
8.54 634
8.56 687
8.58 624
8.60 609
8.62 688
8.64 637
8.66 708
8.68 624
8.70 669
8.72 659
8.74 677
8.76 661
8.78 681
8.80 645
8.82 662
8.84 648
8.86 682
8.88 651
8.90 620
8.92 677
8.94 667
8.96 645
8.98 631
9.00 689
9.02 655
9.04 668
9.06 726
9.08 675
9.10 685
9.12 676
9.14 684
9.16 688
9.18 676
9.20 688
9.22 688
9.24 695
9.26 691
9.28 702
9.30 725
9.32 689
9.34 695
9.36 706
9.38 728
9.40 744
9.42 718
9.44 708
9.46 698
9.48 754
9.50 702
9.52 773
9.54 712
9.56 696
9.58 765
9.60 763
9.62 753
9.64 746
9.66 691
9.68 722
9.70 681
9.72 762
9.74 785
9.76 696
9.78 723
9.80 766
9.82 748
9.84 753
9.86 761
9.88 714
9.90 742
9.92 766
9.94 775
9.96 755
9.98 752
10.00 752
10.02 738
10.04 715
10.06 776
10.08 802
10.10 805
10.12 739
10.14 720
10.16 747
10.18 782
10.20 819
10.22 766
10.24 829
10.26 761
10.28 781
10.30 836
10.32 780
10.34 771
10.36 816
10.38 865
10.40 794
10.42 781
10.44 803
10.46 764
10.48 851
10.50 790
10.52 806
10.54 830
10.56 819
10.58 817
10.60 794
10.62 861
10.64 794
10.66 820
10.68 851
10.70 835
10.72 821
10.74 823
10.76 824
10.78 847
10.80 868
10.82 782
10.84 875
10.86 757
10.88 846
10.90 811
10.92 875
10.94 842
10.96 801
10.98 900
11.00 911
11.02 834
11.04 857
11.06 897
11.08 846
11.10 881
11.12 859
11.14 937
11.16 854
11.18 828
11.20 897
11.22 940
11.24 896
11.26 864
11.28 876
11.30 876
11.32 844
11.34 836
11.36 911
11.38 877
11.40 867
11.42 835
11.44 906
11.46 861
11.48 880
11.50 886
11.52 895
11.54 907
11.56 936
11.58 918
11.60 875
11.62 941
11.64 943
11.66 888
11.68 914
11.70 906
11.72 901
11.74 887
11.76 900
11.78 942
11.80 878
11.82 885
11.84 890
11.86 912
11.88 929
11.90 978
11.92 890
11.94 919
11.96 933
11.98 925
12.00 934
12.02 976
12.04 1013
12.06 946
12.08 974
12.10 978
12.12 972
12.14 980
12.16 963
12.18 891
12.20 964
12.22 1008
12.24 996
12.26 1017
12.28 979
12.30 1012
12.32 1020
12.34 989
12.36 988
12.38 1010
12.40 947
12.42 1031
12.44 1013
12.46 1023
12.48 1021
12.50 964
12.52 934
12.54 1001
12.56 999
12.58 990
12.60 1009
12.62 996
12.64 1018
12.66 1013
12.68 1023
12.70 996
12.72 1004
12.74 1023
12.76 1007
12.78 1012
12.80 995
12.82 999
12.84 978
12.86 1062
12.88 1064
12.90 971
12.92 1081
12.94 1029
12.96 1013
12.98 1064
13.00 1078
13.02 1063
13.04 1037
13.06 1036
13.08 1022
13.10 1088
13.12 1077
13.14 1080
13.16 1004
13.18 1068
13.20 1064
13.22 986
13.24 1037
13.26 1056
13.28 1006
13.30 1038
13.32 1080
13.34 1060
13.36 1077
13.38 1074
13.40 1087
13.42 1053
13.44 1124
13.46 1045
13.48 1080
13.50 1117
13.52 1080
13.54 1035
13.56 1144
13.58 1099
13.60 1130
13.62 1065
13.64 1067
13.66 1089
13.68 1141
13.70 1080
13.72 1106
13.74 1081
13.76 1089
13.78 1133
13.80 1086
13.82 1097
13.84 1158
13.86 1081
13.88 1113
13.90 1104
13.92 1135
13.94 1095
13.96 1123
13.98 1081
14.00 1072
14.02 1074
14.04 1111
14.06 1052
14.08 1138
14.10 1105
14.12 1080
14.14 1137
14.16 1108
14.18 1139
14.20 1147
14.22 1134
14.24 1114
14.26 1174
14.28 1112
14.30 1172
14.32 1142
14.34 1120
14.36 1109
14.38 1146
14.40 1132
14.42 1181
14.44 1137
14.46 1202
14.48 1189
14.50 1179
14.52 1193
14.54 1135
14.56 1184
14.58 1193
14.60 1102
14.62 1201
14.64 1172
14.66 1169
14.68 1210
14.70 1205
14.72 1172
14.74 1113
14.76 1149
14.78 1164
14.80 1169
14.82 1187
14.84 1154
14.86 1241
14.88 1232
14.90 1240
14.92 1201
14.94 1203
14.96 1170
14.98 1198
15.00 1239
15.02 1225
15.04 1198
15.06 1224
15.08 1232
15.10 1240
15.12 1194
15.14 1171
15.16 1204
15.18 1153
15.20 1254
15.22 1294
15.24 1286
15.26 1258
15.28 1228
15.30 1292
15.32 1211
15.34 1242
15.36 1161
15.38 1234
15.40 1244
15.42 1235
15.44 1219
15.46 1315
15.48 1244
15.50 1206
15.52 1253
15.54 1229
15.56 1313
15.58 1259
15.60 1239
15.62 1309
15.64 1265
15.66 1247
15.68 1221
15.70 1319
15.72 1283
15.74 1289
15.76 1297
15.78 1289
15.80 1265
15.82 1212
15.84 1303
15.86 1277
15.88 1333
15.90 1254
15.92 1311
15.94 1362
15.96 1316
15.98 1268
16.00 1306
16.02 1273
16.04 1321
16.06 1301
16.08 1309
16.10 1257
16.12 1328
16.14 1332
16.16 1237
16.18 1266
16.20 1341
16.22 1306
16.24 1284
16.26 1338
16.28 1348
16.30 1329
16.32 1331
16.34 1297
16.36 1316
16.38 1303
16.40 1342
16.42 1348
16.44 1385
16.46 1310
16.48 1342
16.50 1356
16.52 1347
16.54 1297
16.56 1346
16.58 1385
16.60 1287
16.62 1383
16.64 1340
16.66 1366
16.68 1300
16.70 1310
16.72 1409
16.74 1310
16.76 1308
16.78 1375
16.80 1379
16.82 1368
16.84 1334
16.86 1363
16.88 1364
16.90 1361
16.92 1309
16.94 1379
16.96 1401
16.98 1334
17.00 1422
17.02 1357
17.04 1371
17.06 1416
17.08 1392
17.10 1419
17.12 1454
17.14 1455
17.16 1381
17.18 1413
17.20 1428
17.22 1357
17.24 1346
17.26 1413
17.28 1474
17.30 1432
17.32 1349
17.34 1449
17.36 1418
17.38 1461
17.40 1451
17.42 1416
17.44 1459
17.46 1380
17.48 1380
17.50 1409
17.52 1475
17.54 1449
17.56 1458
17.58 1438
17.60 1508
17.62 1421
17.64 1447
17.66 1438
17.68 1506
17.70 1415
17.72 1411
17.74 1479
17.76 1461
17.78 1375
17.80 1449
17.82 1450
17.84 1455
17.86 1517
17.88 1560
17.90 1504
17.92 1460
17.94 1443
17.96 1442
17.98 1495
18.00 1491
18.02 1445
18.04 1510
18.06 1544
18.08 1414
18.10 1484
18.12 1472
18.14 1468
18.16 1489
18.18 1531
18.20 1460
18.22 1542
18.24 1549
18.26 1525
18.28 1473
18.30 1530
18.32 1440
18.34 1551
18.36 1549
18.38 1544
18.40 1544
18.42 1586
18.44 1494
18.46 1506
18.48 1536
18.50 1550
18.52 1578
18.54 1595
18.56 1585
18.58 1600
18.60 1541
18.62 1555
18.64 1579
18.66 1559
18.68 1595
18.70 1522
18.72 1604
18.74 1605
18.76 1553
18.78 1613
18.80 1542
18.82 1581
18.84 1552
18.86 1538
18.88 1487
18.90 1544
18.92 1612
18.94 1574
18.96 1538
18.98 1521
19.00 1521
19.02 1571
19.04 1574
19.06 1593
19.08 1573
19.10 1608
19.12 1622
19.14 1513
19.16 1573
19.18 1591
19.20 1645
19.22 1562
19.24 1636
19.26 1584
19.28 1598
19.30 1566
19.32 1586
19.34 1579
19.36 1547
19.38 1620
19.40 1613
19.42 1628
19.44 1565
19.46 1525
19.48 1575
19.50 1609
19.52 1561
19.54 1580
19.56 1604
19.58 1584
19.60 1614
19.62 1577
19.64 1572
19.66 1588
19.68 1631
19.70 1638
19.72 1628
19.74 1587
19.76 1609
19.78 1586
19.80 1653
19.82 1597
19.84 1741
19.86 1566
19.88 1615
19.90 1694
19.92 1632
19.94 1577
19.96 1692
19.98 1619
20.00 1623
20.02 1585
20.04 1613
20.06 1600
20.08 1604
20.10 1685
20.12 1694
20.14 1665
20.16 1695
20.18 1764
20.20 1644
20.22 1633
20.24 1670
20.26 1674
20.28 1686
20.30 1681
20.32 1671
20.34 1641
20.36 1644
20.38 1694
20.40 1684
20.42 1620
20.44 1723
20.46 1675
20.48 1697
20.50 1779
20.52 1635
20.54 1669
20.56 1704
20.58 1750
20.60 1698
20.62 1741
20.64 1687
20.66 1690
20.68 1690
20.70 1796
20.72 1706
20.74 1723
20.76 1717
20.78 1702
20.80 1742
20.82 1719
20.84 1776
20.86 1706
20.88 1715
20.90 1737
20.92 1691
20.94 1685
20.96 1754
20.98 1772
21.00 1764
21.02 1767
21.04 1724
21.06 1740
21.08 1739
21.10 1808
21.12 1767
21.14 1738
21.16 1742
21.18 1649
21.20 1734
21.22 1752
21.24 1790
21.26 1719
21.28 1767
21.30 1730
21.32 1722
21.34 1761
21.36 1869
21.38 1821
21.40 1794
21.42 1819
21.44 1810
21.46 1702
21.48 1865
21.50 1675
21.52 1768
21.54 1831
21.56 1873
21.58 1850
21.60 1702
21.62 1822
21.64 1778
21.66 1795
21.68 1790
21.70 1787
21.72 1824
21.74 1817
21.76 1844
21.78 1874
21.80 1865
21.82 1847
21.84 1829
21.86 1858
21.88 1793
21.90 1854
21.92 1752
21.94 1766
21.96 1819
21.98 1792
22.00 1864
22.02 1737
22.04 1804
22.06 1861
22.08 1834
22.10 1822
22.12 1892
22.14 1807
22.16 1817
22.18 1839
22.20 1829
22.22 1796
22.24 1910
22.26 1788
22.28 1823
22.30 1887
22.32 1886
22.34 1874
22.36 1834
22.38 1878
22.40 1872
22.42 1875
22.44 1897
22.46 1911
22.48 1927
22.50 1895
22.52 1816
22.54 1899
22.56 1834
22.58 1909
22.60 1843
22.62 1883
22.64 1877
22.66 1993
22.68 1854
22.70 1857
22.72 1971
22.74 1956
22.76 1886
22.78 1894
22.80 1940
22.82 1917
22.84 1900
22.86 1920
22.88 1910
22.90 1895
22.92 1959
22.94 1833
22.96 1896
22.98 1865
23.00 1898
23.02 1939
23.04 1977
23.06 1834
23.08 1944
23.10 1826
23.12 1891
23.14 1864
23.16 1906
23.18 1927
23.20 1953
23.22 1941
23.24 1939
23.26 1964
23.28 1888
23.30 1948
23.32 1916
23.34 1929
23.36 1960
23.38 1975
23.40 1945
23.42 1913
23.44 1886
23.46 1916
23.48 1911
23.50 1958
23.52 1877
23.54 1999
23.56 1893
23.58 1982
23.60 1926
23.62 1976
23.64 2015
23.66 1913
23.68 1932
23.70 1956
23.72 2081
23.74 1993
23.76 1963
23.78 2031
23.80 1941
23.82 1948
23.84 1966
23.86 2032
23.88 2061
23.90 2034
23.92 1994
23.94 1949
23.96 2007
23.98 2057
24.00 1936
24.02 2054
24.04 2078
24.06 1938
24.08 2025
24.10 1961
24.12 2003
24.14 1984
24.16 1992
24.18 2063
24.20 1990
24.22 1972
24.24 1993
24.26 1982
24.28 1959
24.30 2048
24.32 2004
24.34 2023
24.36 2032
24.38 2043
24.40 1916
24.42 2060
24.44 2032
24.46 2096
24.48 2037
24.50 2032
24.52 2070
24.54 2077
24.56 2021
24.58 2013
24.60 2007
24.62 1993
24.64 2064
24.66 2056
24.68 2026
24.70 2035
24.72 2036
24.74 2067
24.76 2040
24.78 2091
24.80 2064
24.82 2056
24.84 2075
24.86 2013
24.88 2061
24.90 2033
24.92 2093
24.94 2105
24.96 2049
24.98 2064
25.00 2066
25.02 2052
25.04 2151
25.06 2077
25.08 2071
25.10 2123
25.12 2048
25.14 2072
25.16 2057
25.18 2068
25.20 2119
25.22 2163
25.24 2102
25.26 2086
25.28 2082
25.30 2111
25.32 2004
25.34 2098
25.36 2121
25.38 2119
25.40 2129
25.42 2197
25.44 2140
25.46 2114
25.48 2066
25.50 2220
25.52 2056
25.54 2103
25.56 2103
25.58 2093
25.60 2161
25.62 2129
25.64 2122
25.66 2175
25.68 2097
25.70 2140
25.72 2202
25.74 2160
25.76 2222
25.78 2088
25.80 2191
25.82 2099
25.84 2104
25.86 2164
25.88 2298
25.90 2157
25.92 2186
25.94 2211
25.96 2091
25.98 2139
26.00 2200
26.02 2203
26.04 2198
26.06 2206
26.08 2161
26.10 2114
26.12 2187
26.14 2260
26.16 2233
26.18 2175
26.20 2172
26.22 2217
26.24 2087
26.26 2197
26.28 2158
26.30 2176
26.32 2164
26.34 2210
26.36 2263
26.38 2139
26.40 2237
26.42 2210
26.44 2152
26.46 2287
26.48 2163
26.50 2225
26.52 2212
26.54 2258
26.56 2209
26.58 2181
26.60 2259
26.62 2173
26.64 2159
26.66 2136
26.68 2221
26.70 2208
26.72 2198
26.74 2250
26.76 2216
26.78 2316
26.80 2267
26.82 2213
26.84 2256
26.86 2180
26.88 2187
26.90 2170
26.92 2301
26.94 2152
26.96 2184
26.98 2231
27.00 2269
27.02 2327
27.04 2258
27.06 2316
27.08 2273
27.10 2232
27.12 2263
27.14 2297
27.16 2392
27.18 2330
27.20 2328
27.22 2303
27.24 2258
27.26 2288
27.28 2218
27.30 2301
27.32 2322
27.34 2274
27.36 2335
27.38 2359
27.40 2322
27.42 2405
27.44 2352
27.46 2366
27.48 2311
27.50 2331
27.52 2367
27.54 2290
27.56 2377
27.58 2386
27.60 2251
27.62 2360
27.64 2292
27.66 2391
27.68 2308
27.70 2441
27.72 2277
27.74 2270
27.76 2266
27.78 2304
27.80 2310
27.82 2256
27.84 2299
27.86 2349
27.88 2342
27.90 2341
27.92 2281
27.94 2263
27.96 2320
27.98 2408
28.00 2411
28.02 2264
28.04 2248
28.06 2339
28.08 2358
28.10 2303
28.12 2375
28.14 2299
28.16 2459
28.18 2233
28.20 2344
28.22 2416
28.24 2258
28.26 2375
28.28 2356
28.30 2379
28.32 2353
28.34 2404
28.36 2348
28.38 2346
28.40 2385
28.42 2327
28.44 2378
28.46 2317
28.48 2343
28.50 2528
28.52 2296
28.54 2458
28.56 2324
28.58 2367
28.60 2362
28.62 2431
28.64 2388
28.66 2370
28.68 2402
28.70 2374
28.72 2329
28.74 2411
28.76 2348
28.78 2418
28.80 2434
28.82 2408
28.84 2404
28.86 2354
28.88 2456
28.90 2463
28.92 2440
28.94 2420
28.96 2342
28.98 2394
29.00 2444
29.02 2398
29.04 2404
29.06 2461
29.08 2386
29.10 2426
29.12 2457
29.14 2450
29.16 2434
29.18 2393
29.20 2404
29.22 2330
29.24 2465
29.26 2485
29.28 2375
29.30 2465
29.32 2416
29.34 2444
29.36 2483
29.38 2430
29.40 2460
29.42 2493
29.44 2421
29.46 2427
29.48 2501
29.50 2405
29.52 2462
29.54 2514
29.56 2417
29.58 2377
29.60 2414
29.62 2437
29.64 2515
29.66 2415
29.68 2541
29.70 2482
29.72 2549
29.74 2517
29.76 2439
29.78 2562
29.80 2523
29.82 2512
29.84 2562
29.86 2494
29.88 2499
29.90 2518
29.92 2477
29.94 2465
29.96 2530
29.98 2512
30.00 2553
30.02 2519
30.04 2561
30.06 2507
30.08 2602
30.10 2547
30.12 2572
30.14 2587
30.16 2619
30.18 2685
30.20 2617
30.22 2630
30.24 2707
30.26 2709
30.28 2845
30.30 2913
30.32 2942
30.34 2906
30.36 2982
30.38 2941
30.40 2947
30.42 2987
30.44 2877
30.46 2822
30.48 2731
30.50 2672
30.52 2600
30.54 2584
30.56 2600
30.58 2602
30.60 2720
30.62 2629
30.64 2575
30.66 2597
30.68 2583
30.70 2569
30.72 2555
30.74 2577
30.76 2589
30.78 2574
30.80 2558
30.82 2516
30.84 2517
30.86 2485
30.88 2570
30.90 2527
30.92 2558
30.94 2558
30.96 2620
30.98 2626
31.00 2505
31.02 2487
31.04 2529
31.06 2575
31.08 2525
31.10 2548
31.12 2622
31.14 2606
31.16 2587
31.18 2550
31.20 2593
31.22 2644
31.24 2504
31.26 2601
31.28 2570
31.30 2579
31.32 2577
31.34 2588
31.36 2646
31.38 2683
31.40 2605
31.42 2649
31.44 2603
31.46 2570
31.48 2665
31.50 2656
31.52 2664
31.54 2595
31.56 2711
31.58 2571
31.60 2714
31.62 2670
31.64 2726
31.66 2693
31.68 2665
31.70 2577
31.72 2641
31.74 2760
31.76 2680
31.78 2705
31.80 2716
31.82 2692
31.84 2645
31.86 2717
31.88 2632
31.90 2760
31.92 2674
31.94 2765
31.96 2641
31.98 2681
32.00 2733
32.02 2772
32.04 2831
32.06 2937
32.08 2830
32.10 3005
32.12 2895
32.14 3020
32.16 2993
32.18 2947
32.20 3001
32.22 2961
32.24 2921
32.26 2864
32.28 2799
32.30 2746
32.32 2759
32.34 2794
32.36 2717
32.38 2748
32.40 2726
32.42 2744
32.44 2685
32.46 2659
32.48 2734
32.50 2740
32.52 2818
32.54 2695
32.56 2793
32.58 2606
32.60 2703
32.62 2686
32.64 2743
32.66 2661
32.68 2720
32.70 2708
32.72 2812
32.74 2681
32.76 2768
32.78 2717
32.80 2678
32.82 2731
32.84 2786
32.86 2750
32.88 2690
32.90 2669
32.92 2727
32.94 2809
32.96 2798
32.98 2671
33.00 2680
33.02 2706
33.04 2746
33.06 2710
33.08 2687
33.10 2769
33.12 2813
33.14 2756
33.16 2717
33.18 2793
33.20 2725
33.22 2746
33.24 2717
33.26 2743
33.28 2797
33.30 2750
33.32 2702
33.34 2780
33.36 2689
33.38 2724
33.40 2805
33.42 2762
33.44 2817
33.46 2798
33.48 2863
33.50 2839
33.52 2776
33.54 2772
33.56 2795
33.58 2755
33.60 2676
33.62 2857
33.64 2802
33.66 2823
33.68 2744
33.70 2863
33.72 2760
33.74 2732
33.76 2872
33.78 2851
33.80 2738
33.82 2782
33.84 2823
33.86 2848
33.88 2780
33.90 2858
33.92 2849
33.94 2796
33.96 2821
33.98 2802
34.00 2779
34.02 2861
34.04 2838
34.06 2898
34.08 2769
34.10 2804
34.12 2894
34.14 2796
34.16 2833
34.18 2819
34.20 2885
34.22 2776
34.24 2780
34.26 2941
34.28 2846
34.30 2681
34.32 2765
34.34 2912
34.36 2760
34.38 2866
34.40 2873
34.42 2852
34.44 2794
34.46 2944
34.48 2899
34.50 2829
34.52 2896
34.54 2923
34.56 2836
34.58 2877
34.60 2912
34.62 2885
34.64 3009
34.66 2806
34.68 2850
34.70 2876
34.72 2824
34.74 2889
34.76 2931
34.78 2885
34.80 2889
34.82 2916
34.84 2968
34.86 2968
34.88 2851
34.90 2932
34.92 2793
34.94 2894
34.96 2945
34.98 2951
35.00 2848
35.02 2951
35.04 2871
35.06 2979
35.08 2897
35.10 2898
35.12 3005
35.14 2888
35.16 2944
35.18 2941
35.20 2865
35.22 2997
35.24 3008
35.26 2879
35.28 2957
35.30 3083
35.32 3025
35.34 3148
35.36 3074
35.38 2963
35.40 3257
35.42 3158
35.44 3223
35.46 3373
35.48 3360
35.50 3345
35.52 3511
35.54 3508
35.56 3512
35.58 3611
35.60 3792
35.62 4081
35.64 4253
35.66 4528
35.68 4608
35.70 4756
35.72 4884
35.74 4725
35.76 4732
35.78 4258
35.80 4172
35.82 4057
35.84 3876
35.86 3683
35.88 3447
35.90 3359
35.92 3253
35.94 3204
35.96 3162
35.98 3113
36.00 3099
36.02 3027
36.04 3097
36.06 3106
36.08 2949
36.10 3063
36.12 3055
36.14 3026
36.16 3051
36.18 2973
36.20 3019
36.22 3027
36.24 3004
36.26 2929
36.28 3094
36.30 3074
36.32 2993
36.34 3067
36.36 2985
36.38 3098
36.40 3052
36.42 2976
36.44 2942
36.46 3048
36.48 3029
36.50 2995
36.52 3034
36.54 3012
36.56 2993
36.58 3041
36.60 3054
36.62 2985
36.64 3102
36.66 3188
36.68 2979
36.70 3088
36.72 3041
36.74 3085
36.76 3014
36.78 3059
36.80 3067
36.82 2980
36.84 3016
36.86 3083
36.88 3165
36.90 3012
36.92 3024
36.94 3032
36.96 2962
36.98 3088
37.00 2999
37.02 3068
37.04 3187
37.06 3043
37.08 2982
37.10 3060
37.12 3023
37.14 3067
37.16 3055
37.18 3087
37.20 3112
37.22 3156
37.24 3058
37.26 3075
37.28 3132
37.30 3134
37.32 3174
37.34 3194
37.36 3199
37.38 3165
37.40 3136
37.42 3134
37.44 3063
37.46 3168
37.48 3126
37.50 3194
37.52 3100
37.54 3105
37.56 3043
37.58 3004
37.60 3144
37.62 2951
37.64 3048
37.66 3077
37.68 3072
37.70 3155
37.72 3174
37.74 3156
37.76 3104
37.78 3102
37.80 3061
37.82 3142
37.84 2990
37.86 3084
37.88 3140
37.90 3157
37.92 3050
37.94 3109
37.96 3149
37.98 3067
38.00 3123
38.02 3070
38.04 3071
38.06 3134
38.08 3112
38.10 3119
38.12 3069
38.14 3111
38.16 3073
38.18 3057
38.20 3117
38.22 3104
38.24 3035
38.26 3168
38.28 3206
38.30 3054
38.32 3112
38.34 3242
38.36 3117
38.38 3167
38.40 3182
38.42 3185
38.44 3178
38.46 3134
38.48 3118
38.50 3098
38.52 3154
38.54 3191
38.56 3123
38.58 3224
38.60 3159
38.62 3127
38.64 3106
38.66 3113
38.68 3078
38.70 3227
38.72 3219
38.74 3196
38.76 3155
38.78 3242
38.80 3169
38.82 3167
38.84 3246
38.86 3121
38.88 3140
38.90 3182
38.92 3194
38.94 3212
38.96 3137
38.98 3277
39.00 3279
39.02 3244
39.04 3269
39.06 3227
39.08 3282
39.10 3289
39.12 3182
39.14 3168
39.16 3189
39.18 3347
39.20 3239
39.22 3255
39.24 3179
39.26 3194
39.28 3205
39.30 3197
39.32 3197
39.34 3143
39.36 3208
39.38 3135
39.40 3243
39.42 3277
39.44 3194
39.46 3232
39.48 3224
39.50 3155
39.52 3248
39.54 3219
39.56 3246
39.58 3317
39.60 3259
39.62 3125
39.64 3302
39.66 3228
39.68 3249
39.70 3246
39.72 3316
39.74 3262
39.76 3274
39.78 3204
39.80 3305
39.82 3233
39.84 3296
39.86 3251
39.88 3314
39.90 3334
39.92 3332
39.94 3199
39.96 3240
39.98 3257
40.00 3233
40.02 3244
40.04 3229
40.06 3270
40.08 3248
40.10 3234
40.12 3129
40.14 3216
40.16 3332
40.18 3192
40.20 3325
40.22 3338
40.24 3295
40.26 3306
40.28 3261
40.30 3295
40.32 3288
40.34 3208
40.36 3373
40.38 3234
40.40 3338
40.42 3327
40.44 3263
40.46 3244
40.48 3443
40.50 3289
40.52 3309
40.54 3260
40.56 3308
40.58 3338
40.60 3285
40.62 3492
40.64 3294
40.66 3371
40.68 3348
40.70 3393
40.72 3354
40.74 3274
40.76 3326
40.78 3338
40.80 3305
40.82 3302
40.84 3313
40.86 3417
40.88 3322
40.90 3321
40.92 3318
40.94 3386
40.96 3401
40.98 3361
41.00 3331
41.02 3387
41.04 3420
41.06 3347
41.08 3278
41.10 3346
41.12 3439
41.14 3362
41.16 3323
41.18 3326
41.20 3402
41.22 3431
41.24 3425
41.26 3432
41.28 3505
41.30 3345
41.32 3375
41.34 3362
41.36 3306
41.38 3421
41.40 3411
41.42 3389
41.44 3343
41.46 3435
41.48 3395
41.50 3395
41.52 3347
41.54 3461
41.56 3314
41.58 3368
41.60 3354
41.62 3343
41.64 3368
41.66 3370
41.68 3373
41.70 3425
41.72 3331
41.74 3281
41.76 3463
41.78 3470
41.80 3430
41.82 3443
41.84 3410
41.86 3447
41.88 3285
41.90 3456
41.92 3372
41.94 3518
41.96 3411
41.98 3349
42.00 3376
42.02 3484
42.04 3453
42.06 3298
42.08 3450
42.10 3392
42.12 3419
42.14 3486
42.16 3406
42.18 3358
42.20 3461
42.22 3472
42.24 3380
42.26 3431
42.28 3451
42.30 3461
42.32 3597
42.34 3455
42.36 3432
42.38 3479
42.40 3500
42.42 3447
42.44 3394
42.46 3442
42.48 3440
42.50 3461
42.52 3423
42.54 3513
42.56 3325
42.58 3485
42.60 3435
42.62 3507
42.64 3443
42.66 3621
42.68 3415
42.70 3497
42.72 3491
42.74 3597
42.76 3459
42.78 3528
42.80 3436
42.82 3489
42.84 3514
42.86 3479
42.88 3573
42.90 3503
42.92 3534
42.94 3461
42.96 3445
42.98 3494
43.00 3519
43.02 3446
43.04 3479
43.06 3508
43.08 3563
43.10 3607
43.12 3575
43.14 3565
43.16 3637
43.18 3637
43.20 3722
43.22 3752
43.24 3738
43.26 3832
43.28 3879
43.30 3927
43.32 3973
43.34 3992
43.36 3981
43.38 3967
43.40 3925
43.42 3815
43.44 3845
43.46 3831
43.48 3801
43.50 3673
43.52 3743
43.54 3610
43.56 3674
43.58 3532
43.60 3587
43.62 3561
43.64 3614
43.66 3701
43.68 3658
43.70 3608
43.72 3630
43.74 3586
43.76 3557
43.78 3444
43.80 3604
43.82 3524
43.84 3429
43.86 3617
43.88 3647
43.90 3500
43.92 3492
43.94 3559
43.96 3606
43.98 3587
44.00 3474
44.02 3582
44.04 3572
44.06 3467
44.08 3666
44.10 3539
44.12 3551
44.14 3600
44.16 3565
44.18 3554
44.20 3652
44.22 3583
44.24 3605
44.26 3619
44.28 3585
44.30 3609
44.32 3506
44.34 3700
44.36 3558
44.38 3629
44.40 3579
44.42 3683
44.44 3625
44.46 3646
44.48 3606
44.50 3677
44.52 3647
44.54 3569
44.56 3487
44.58 3631
44.60 3565
44.62 3644
44.64 3602
44.66 3651
44.68 3662
44.70 3671
44.72 3584
44.74 3649
44.76 3624
44.78 3503
44.80 3537
44.82 3702
44.84 3588
44.86 3650
44.88 3603
44.90 3607
44.92 3682
44.94 3592
44.96 3652
44.98 3594
45.00 3609
45.02 3650
45.04 3748
45.06 3683
45.08 3547
45.10 3547
45.12 3761
45.14 3746
45.16 3665
45.18 3542
45.20 3695
45.22 3596
45.24 3617
45.26 3605
45.28 3603
45.30 3576
45.32 3673
45.34 3716
45.36 3626
45.38 3641
45.40 3614
45.42 3654
45.44 3704
45.46 3600
45.48 3705
45.50 3698
45.52 3760
45.54 3641
45.56 3656
45.58 3663
45.60 3662
45.62 3702
45.64 3619
45.66 3759
45.68 3755
45.70 3653
45.72 3679
45.74 3638
45.76 3695
45.78 3657
45.80 3738
45.82 3732
45.84 3703
45.86 3715
45.88 3621
45.90 3684
45.92 3796
45.94 3774
45.96 3709
45.98 3661
46.00 3639
46.02 3645
46.04 3674
46.06 3742
46.08 3673
46.10 3680
46.12 3762
46.14 3803
46.16 3762
46.18 3833
46.20 3748
46.22 3730
46.24 3779
46.26 3786
46.28 3698
46.30 3756
46.32 3731
46.34 3704
46.36 3826
46.38 3612
46.40 3695
46.42 3761
46.44 3781
46.46 3761
46.48 3705
46.50 3809
46.52 3796
46.54 3748
46.56 3864
46.58 3675
46.60 3770
46.62 3754
46.64 3686
46.66 3721
46.68 3659
46.70 3737
46.72 3705
46.74 3790
46.76 3787
46.78 3752
46.80 3838
46.82 3743
46.84 3705
46.86 3679
46.88 3864
46.90 3758
46.92 3754
46.94 3662
46.96 3655
46.98 3848
47.00 3777
47.02 3747
47.04 3849
47.06 3767
47.08 3763
47.10 3722
47.12 3855
47.14 3865
47.16 3940
47.18 3891
47.20 3799
47.22 3785
47.24 3783
47.26 3810
47.28 3756
47.30 3806
47.32 3797
47.34 3744
47.36 3830
47.38 3732
47.40 4051
47.42 3907
47.44 3784
47.46 4012
47.48 3761
47.50 3720
47.52 3814
47.54 3817
47.56 3663
47.58 3854
47.60 3804
47.62 3826
47.64 3736
47.66 3748
47.68 3880
47.70 3898
47.72 3889
47.74 3794
47.76 3756
47.78 3904
47.80 3928
47.82 3783
47.84 3927
47.86 3822
47.88 3908
47.90 3827
47.92 3756
47.94 3860
47.96 3806
47.98 3796
48.00 3875
48.02 3850
48.04 3874
48.06 3902
48.08 3895
48.10 3862
48.12 3836
48.14 3906
48.16 3895
48.18 3875
48.20 3913
48.22 3881
48.24 3951
48.26 3784
48.28 3887
48.30 3959
48.32 3872
48.34 3875
48.36 3896
48.38 3861
48.40 3977
48.42 3967
48.44 3798
48.46 3864
48.48 3781
48.50 3877
48.52 3890
48.54 3872
48.56 3904
48.58 3915
48.60 3790
48.62 3938
48.64 3929
48.66 3829
48.68 3884
48.70 3938
48.72 3850
48.74 3857
48.76 3939
48.78 3900
48.80 3877
48.82 3857
48.84 3986
48.86 4011
48.88 3925
48.90 3989
48.92 3920
48.94 3859
48.96 3849
48.98 3999
49.00 3989
49.02 3879
49.04 3905
49.06 3936
49.08 3904
49.10 4021
49.12 3899
49.14 3945
49.16 3887
49.18 3888
49.20 3978
49.22 3967
49.24 3873
49.26 3923
49.28 3974
49.30 4022
49.32 3995
49.34 3982
49.36 3879
49.38 3987
49.40 3868
49.42 3933
49.44 3849
49.46 4030
49.48 3908
49.50 3956
49.52 3942
49.54 3912
49.56 3910
49.58 4041
49.60 3868
49.62 4090
49.64 3996
49.66 3993
49.68 3982
49.70 4092
49.72 4075
49.74 3956
49.76 4039
49.78 4016
49.80 3924
49.82 4003
49.84 4019
49.86 4111
49.88 3958
49.90 3884
49.92 4040
49.94 3974
49.96 3946
49.98 3930
50.00 4008
50.02 3873
50.04 4057
50.06 3992
50.08 4002
50.10 3941
50.12 3865
50.14 4009
50.16 4082
50.18 4013
50.20 4044
50.22 3978
50.24 3904
50.26 3967
50.28 4042
50.30 4059
50.32 4018
50.34 4089
50.36 3994
50.38 3999
50.40 3973
50.42 3994
50.44 4162
50.46 3920
50.48 4055
50.50 3991
50.52 4097
50.54 4083
50.56 4045
50.58 4112
50.60 4040
50.62 4075
50.64 4106
50.66 3923
50.68 4008
50.70 3997
50.72 4117
50.74 4021
50.76 4065
50.78 4101
50.80 4057
50.82 3995
50.84 4128
50.86 4101
50.88 4085
50.90 3943
50.92 4169
50.94 3977
50.96 3929
50.98 4072
51.00 4056
51.02 3977
51.04 4110
51.06 4143
51.08 4058
51.10 4062
51.12 4063
51.14 4131
51.16 4190
51.18 4211
51.20 4074
51.22 4214
51.24 4211
51.26 4264
51.28 4277
51.30 4341
51.32 4189
51.34 4314
51.36 4207
51.38 4137
51.40 4221
51.42 4160
51.44 4162
51.46 4013
51.48 4187
51.50 4159
51.52 4188
51.54 4211
51.56 4059
51.58 4063
51.60 4139
51.62 4091
51.64 4090
51.66 4182
51.68 4038
51.70 4170
51.72 4186
51.74 3977
51.76 4113
51.78 4127
51.80 4033
51.82 4085
51.84 4108
51.86 4074
51.88 4178
51.90 4144
51.92 4041
51.94 4179
51.96 4082
51.98 4161
52.00 4146
52.02 4093
52.04 4089
52.06 4150
52.08 4053
52.10 4119
52.12 4129
52.14 4149
52.16 4060
52.18 4116
52.20 4188
52.22 4151
52.24 4032
52.26 3992
52.28 4209
52.30 4120
52.32 4150
52.34 4215
52.36 4116
52.38 4110
52.40 4265
52.42 4221
52.44 4137
52.46 4166
52.48 4144
52.50 4249
52.52 4234
52.54 4165
52.56 4113
52.58 4140
52.60 4173
52.62 4218
52.64 4197
52.66 4125
52.68 4213
52.70 4015
52.72 4164
52.74 4160
52.76 4186
52.78 4183
52.80 4254
52.82 4161
52.84 4237
52.86 4224
52.88 4280
52.90 4193
52.92 4166
52.94 4093
52.96 4200
52.98 4234
53.00 4154
53.02 4272
53.04 4228
53.06 4219
53.08 4178
53.10 4158
53.12 4254
53.14 4231
53.16 4143
53.18 4296
53.20 4111
53.22 4223
53.24 4241
53.26 4230
53.28 4181
53.30 4280
53.32 4369
53.34 4277
53.36 4268
53.38 4180
53.40 4191
53.42 4282
53.44 4196
53.46 4396
53.48 4272
53.50 4342
53.52 4429
53.54 4278
53.56 4392
53.58 4369
53.60 4430
53.62 4317
53.64 4425
53.66 4494
53.68 4479
53.70 4450
53.72 4490
53.74 4386
53.76 4481
53.78 4445
53.80 4456
53.82 4435
53.84 4404
53.86 4282
53.88 4263
53.90 4383
53.92 4271
53.94 4342
53.96 4221
53.98 4300
54.00 4328
54.02 4336
54.04 4425
54.06 4275
54.08 4216
54.10 4244
54.12 4381
54.14 4324
54.16 4097
54.18 4176
54.20 4329
54.22 4147
54.24 4356
54.26 4278
54.28 4199
54.30 4219
54.32 4210
54.34 4307
54.36 4259
54.38 4286
54.40 4256
54.42 4272
54.44 4302
54.46 4399
54.48 4200
54.50 4280
54.52 4179
54.54 4312
54.56 4247
54.58 4406
54.60 4221
54.62 4187
54.64 4341
54.66 4273
54.68 4207
54.70 4255
54.72 4361
54.74 4352
54.76 4390
54.78 4276
54.80 4366
54.82 4315
54.84 4212
54.86 4361
54.88 4244
54.90 4395
54.92 4289
54.94 4302
54.96 4177
54.98 4255
55.00 4425
55.02 4273
55.04 4284
55.06 4307
55.08 4317
55.10 4386
55.12 4317
55.14 4388
55.16 4422
55.18 4352
55.20 4257
55.22 4471
55.24 4337
55.26 4300
55.28 4372
55.30 4268
55.32 4363
55.34 4460
55.36 4353
55.38 4442
55.40 4484
55.42 4398
55.44 4415
55.46 4403
55.48 4306
55.50 4419
55.52 4291
55.54 4239
55.56 4312
55.58 4354
55.60 4424
55.62 4434
55.64 4362
55.66 4402
55.68 4432
55.70 4393
55.72 4503
55.74 4367
55.76 4391
55.78 4413
55.80 4388
55.82 4290
55.84 4443
55.86 4502
55.88 4418
55.90 4460
55.92 4309
55.94 4295
55.96 4355
55.98 4385
56.00 4431
56.02 4484
56.04 4449
56.06 4429
56.08 4576
56.10 4391
56.12 4575
56.14 4562
56.16 4727
56.18 4662
56.20 4667
56.22 4685
56.24 4641
56.26 4418
56.28 4642
56.30 4630
56.32 4720
56.34 4500
56.36 4526
56.38 4337
56.40 4548
56.42 4536
56.44 4526
56.46 4453
56.48 4469
56.50 4538
56.52 4482
56.54 4524
56.56 4409
56.58 4470
56.60 4396
56.62 4422
56.64 4362
56.66 4403
56.68 4431
56.70 4408
56.72 4345
56.74 4439
56.76 4530
56.78 4467
56.80 4438
56.82 4444
56.84 4558
56.86 4397
56.88 4532
56.90 4515
56.92 4595
56.94 4580
56.96 4647
56.98 4580
57.00 4649
57.02 4584
57.04 4633
57.06 4663
57.08 4768
57.10 4790
57.12 4955
57.14 4956
57.16 5051
57.18 5035
57.20 5250
57.22 5213
57.24 5073
57.26 5214
57.28 5079
57.30 5018
57.32 4933
57.34 4891
57.36 5042
57.38 4815
57.40 4778
57.42 4764
57.44 4842
57.46 4722
57.48 4548
57.50 4603
57.52 4632
57.54 4729
57.56 4735
57.58 4577
57.60 4524
57.62 4583
57.64 4598
57.66 4580
57.68 4663
57.70 4582
57.72 4587
57.74 4492
57.76 4519
57.78 4571
57.80 4628
57.82 4619
57.84 4474
57.86 4594
57.88 4627
57.90 4514
57.92 4576
57.94 4558
57.96 4417
57.98 4481
58.00 4565
58.02 4558
58.04 4541
58.06 4668
58.08 4574
58.10 4494
58.12 4556
58.14 4486
58.16 4552
58.18 4539
58.20 4598
58.22 4600
58.24 4584
58.26 4548
58.28 4581
58.30 4548
58.32 4527
58.34 4490
58.36 4621
58.38 4513
58.40 4552
58.42 4607
58.44 4619
58.46 4538
58.48 4746
58.50 4456
58.52 4597
58.54 4606
58.56 4705
58.58 4646
58.60 4640
58.62 4556
58.64 4594
58.66 4549
58.68 4524
58.70 4691
58.72 4554
58.74 4658
58.76 4495
58.78 4521
58.80 4555
58.82 4488
58.84 4544
58.86 4526
58.88 4613
58.90 4753
58.92 4687
58.94 4510
58.96 4656
58.98 4627
59.00 4610
59.02 4605
59.04 4664
59.06 4624
59.08 4625
59.10 4623
59.12 4661
59.14 4692
59.16 4590
59.18 4608
59.20 4607
59.22 4594
59.24 4630
59.26 4655
59.28 4592
59.30 4727
59.32 4585
59.34 4595
59.36 4610
59.38 4621
59.40 4631
59.42 4527
59.44 4599
59.46 4675
59.48 4582
59.50 4783
59.52 4659
59.54 4614
59.56 4523
59.58 4666
59.60 4638
59.62 4651
59.64 4549
59.66 4611
59.68 4697
59.70 4567
59.72 4626
59.74 4557
59.76 4763
59.78 4604
59.80 4609
59.82 4687
59.84 4606
59.86 4602
59.88 4625
59.90 4704
59.92 4592
59.94 4705
59.96 4666
59.98 4657
60.00 4670
60.02 4685
60.04 4663
60.06 4730
60.08 4602
60.10 4623
60.12 4593
60.14 4654
60.16 4548
60.18 4631
60.20 4654
60.22 4586
60.24 4696
60.26 4589
60.28 4683
60.30 4686
60.32 4584
60.34 4673
60.36 4792
60.38 4601
60.40 4741
60.42 4630
60.44 4682
60.46 4707
60.48 4720
60.50 4664
60.52 4799
60.54 4732
60.56 4675
60.58 4621
60.60 4753
60.62 4639
60.64 4649
60.66 4813
60.68 4716
60.70 4710
60.72 4575
60.74 4784
60.76 4697
60.78 4662
60.80 4737
60.82 4536
60.84 4649
60.86 4721
60.88 4744
60.90 4755
60.92 4793
60.94 4694
60.96 4680
60.98 4728
61.00 4738
61.02 4705
61.04 4746
61.06 4711
61.08 4827
61.10 4768
61.12 4723
61.14 4641
61.16 4783
61.18 4681
61.20 4706
61.22 4682
61.24 4724
61.26 4887
61.28 4639
61.30 4673
61.32 4854
61.34 4679
61.36 4699
61.38 4777
61.40 4703
61.42 4759
61.44 4779
61.46 4784
61.48 4814
61.50 4766
61.52 4779
61.54 4717
61.56 4897
61.58 4811
61.60 4712
61.62 4693
61.64 4800
61.66 4756
61.68 4748
61.70 4782
61.72 4856
61.74 4738
61.76 4840
61.78 4789
61.80 4762
61.82 4772
61.84 4750
61.86 4695
61.88 4845
61.90 4821
61.92 4761
61.94 4717
61.96 4855
61.98 4830
62.00 4835
62.02 4829
62.04 4734
62.06 4869
62.08 4925
62.10 4717
62.12 4841
62.14 4869
62.16 4731
62.18 4882
62.20 4775
62.22 4706
62.24 4790
62.26 4728
62.28 4865
62.30 4844
62.32 4877
62.34 4862
62.36 4819
62.38 4817
62.40 4852
62.42 4903
62.44 5014
62.46 4888
62.48 4942
62.50 4881
62.52 5135
62.54 4912
62.56 5125
62.58 5138
62.60 5033
62.62 5125
62.64 5197
62.66 5127
62.68 5411
62.70 5319
62.72 5642
62.74 5693
62.76 5750
62.78 5852
62.80 5806
62.82 5840
62.84 5927
62.86 5728
62.88 5774
62.90 5771
62.92 5475
62.94 5466
62.96 5469
62.98 5552
63.00 5432
63.02 5357
63.04 5262
63.06 5125
63.08 5044
63.10 5225
63.12 5108
63.14 4882
63.16 4981
63.18 4996
63.20 4925
63.22 4945
63.24 4957
63.26 5000
63.28 5058
63.30 4954
63.32 4993
63.34 4960
63.36 4925
63.38 4801
63.40 4874
63.42 4947
63.44 4873
63.46 4757
63.48 5005
63.50 4934
63.52 4953
63.54 4849
63.56 4793
63.58 4975
63.60 4931
63.62 4849
63.64 4886
63.66 4964
63.68 4927
63.70 4798
63.72 4949
63.74 4767
63.76 4853
63.78 5023
63.80 4842
63.82 5044
63.84 4909
63.86 4850
63.88 4968
63.90 4845
63.92 4914
63.94 4900
63.96 5012
63.98 4897
64.00 4843
64.02 4874
64.04 4898
64.06 4980
64.08 4859
64.10 4883
64.12 4844
64.14 5035
64.16 4880
64.18 4910
64.20 4877
64.22 5028
64.24 4910
64.26 4853
64.28 4937
64.30 5009
64.32 4934
64.34 4914
64.36 4780
64.38 4978
64.40 4992
64.42 4972
64.44 4926
64.46 4861
64.48 4909
64.50 5041
64.52 4872
64.54 4881
64.56 4852
64.58 4869
64.60 5015
64.62 4849
64.64 4891
64.66 4965
64.68 4864
64.70 4990
64.72 4940
64.74 4891
64.76 4869
64.78 4959
64.80 4987
64.82 4928
64.84 4882
64.86 4916
64.88 5043
64.90 5001
64.92 4982
64.94 4875
64.96 4960
64.98 4926
65.00 4931
65.02 4839
65.04 5120
65.06 5035
65.08 5025
65.10 4891
65.12 4992
65.14 4963
65.16 4962
65.18 4910
65.20 4966
65.22 5079
65.24 4966
65.26 4975
65.28 4957
65.30 5002
65.32 4951
65.34 5030
65.36 4952
65.38 4921
65.40 5061
65.42 4990
65.44 5030
65.46 5111
65.48 5085
65.50 4955
65.52 4931
65.54 5149
65.56 5029
65.58 5153
65.60 5068
65.62 5041
65.64 4970
65.66 5037
65.68 5057
65.70 5003
65.72 4986
65.74 4978
65.76 5108
65.78 4942
65.80 5094
65.82 5069
65.84 5056
65.86 5001
65.88 5174
65.90 5001
65.92 5095
65.94 4983
65.96 5066
65.98 5087
66.00 5066
66.02 5094
66.04 5152
66.06 5088
66.08 5099
66.10 5114
66.12 5115
66.14 5082
66.16 5167
66.18 5039
66.20 5096
66.22 5039
66.24 5006
66.26 5106
66.28 5059
66.30 5188
66.32 5220
66.34 5090
66.36 4992
66.38 5133
66.40 5037
66.42 5003
66.44 5075
66.46 5052
66.48 5065
66.50 5087
66.52 5119
66.54 4939
66.56 5104
66.58 5184
66.60 5019
66.62 5207
66.64 4990
66.66 5105
66.68 5073
66.70 4967
66.72 5135
66.74 5143
66.76 5014
66.78 5038
66.80 5023
66.82 5154
66.84 5026
66.86 5088
66.88 5106
66.90 5110
66.92 5201
66.94 5103
66.96 5114
66.98 5132
67.00 5012
67.02 5081
67.04 5196
67.06 5071
67.08 5184
67.10 5112
67.12 5140
67.14 5272
67.16 5086
67.18 5065
67.20 5098
67.22 5146
67.24 5104
67.26 5084
67.28 4987
67.30 5187
67.32 4996
67.34 5129
67.36 5131
67.38 5123
67.40 5140
67.42 5033
67.44 5080
67.46 4994
67.48 5188
67.50 5164
67.52 5087
67.54 5350
67.56 5081
67.58 5059
67.60 5159
67.62 5087
67.64 5197
67.66 5037
67.68 5157
67.70 5270
67.72 5199
67.74 5209
67.76 5208
67.78 5192
67.80 5274
67.82 5276
67.84 5185
67.86 5231
67.88 5261
67.90 5171
67.92 5191
67.94 5037
67.96 5020
67.98 5187
68.00 5139
68.02 5127
68.04 5100
68.06 5081
68.08 5254
68.10 5156
68.12 5200
68.14 5231
68.16 5043
68.18 5061
68.20 5246
68.22 5250
68.24 5211
68.26 5071
68.28 5079
68.30 5102
68.32 5151
68.34 5240
68.36 5135
68.38 5223
68.40 5253
68.42 5219
68.44 5181
68.46 5130
68.48 5167
68.50 5038
68.52 5271
68.54 5226
68.56 5196
68.58 5253
68.60 5111
68.62 5296
68.64 5187
68.66 5159
68.68 5310
68.70 5380
68.72 5260
68.74 5355
68.76 5160
68.78 5118
68.80 5145
68.82 5311
68.84 5194
68.86 5174
68.88 5280
68.90 5219
68.92 5168
68.94 5297
68.96 5240
68.98 5223
69.00 5302
69.02 5175
69.04 5196
69.06 5132
69.08 5208
69.10 5258
69.12 5230
69.14 5330
69.16 5263
69.18 5250
69.20 5165
69.22 5312
69.24 5324
69.26 5140
69.28 5240
69.30 5242
69.32 5341
69.34 5260
69.36 5142
69.38 5302
69.40 5258
69.42 5280
69.44 5250
69.46 5290
69.48 5250
69.50 5201
69.52 5171
69.54 5324
69.56 5115
69.58 5173
69.60 5378
69.62 5246
69.64 5171
69.66 5285
69.68 5227
69.70 5257
69.72 5336
69.74 5176
69.76 5261
69.78 5354
69.80 5266
69.82 5223
69.84 5343
69.86 5285
69.88 5311
69.90 5243
69.92 5273
69.94 5422
69.96 5377
69.98 5299
70.00 5387
70.02 5325
70.04 5347
70.06 5347
70.08 5279
70.10 5334
70.12 5279
70.14 5422
70.16 5293
70.18 5340
70.20 5243
70.22 5209
70.24 5332
70.26 5135
70.28 5260
70.30 5360
70.32 5253
70.34 5270
70.36 5325
70.38 5332
70.40 5499
70.42 5340
70.44 5370
70.46 5205
70.48 5317
70.50 5185
70.52 5372
70.54 5287
70.56 5233
70.58 5391
70.60 5348
70.62 5327
70.64 5266
70.66 5334
70.68 5191
70.70 5253
70.72 5336
70.74 5285
70.76 5324
70.78 5215
70.80 5350
70.82 5321
70.84 5330
70.86 5382
70.88 5315
70.90 5290
70.92 5335
70.94 5346
70.96 5283
70.98 5377
71.00 5485
71.02 5490
71.04 5323
71.06 5362
71.08 5388
71.10 5311
71.12 5261
71.14 5414
71.16 5430
71.18 5447
71.20 5409
71.22 5507
71.24 5419
71.26 5392
71.28 5472
71.30 5464
71.32 5345
71.34 5289
71.36 5430
71.38 5385
71.40 5356
71.42 5434
71.44 5407
71.46 5428
71.48 5442
71.50 5262
71.52 5396
71.54 5248
71.56 5540
71.58 5454
71.60 5348
71.62 5326
71.64 5385
71.66 5324
71.68 5377
71.70 5337
71.72 5282
71.74 5336
71.76 5378
71.78 5341
71.80 5494
71.82 5470
71.84 5465
71.86 5440
71.88 5383
71.90 5364
71.92 5357
71.94 5320
71.96 5321
71.98 5395
72.00 5394
72.02 5341
72.04 5389
72.06 5401
72.08 5255
72.10 5400
72.12 5456
72.14 5394
72.16 5371
72.18 5355
72.20 5404
72.22 5500
72.24 5448
72.26 5520
72.28 5347
72.30 5366
72.32 5287
72.34 5514
72.36 5463
72.38 5547
72.40 5529
72.42 5430
72.44 5335
72.46 5558
72.48 5477
72.50 5337
72.52 5457
72.54 5426
72.56 5446
72.58 5380
72.60 5435
72.62 5389
72.64 5447
72.66 5532
72.68 5381
72.70 5471
72.72 5420
72.74 5405
72.76 5450
72.78 5384
72.80 5629
72.82 5450
72.84 5462
72.86 5422
72.88 5506
72.90 5522
72.92 5502
72.94 5448
72.96 5397
72.98 5422
73.00 5516
73.02 5555
73.04 5456
73.06 5574
73.08 5430
73.10 5507
73.12 5484
73.14 5557
73.16 5432
73.18 5535
73.20 5538
73.22 5584
73.24 5506
73.26 5469
73.28 5378
73.30 5495
73.32 5440
73.34 5543
73.36 5548
73.38 5454
73.40 5404
73.42 5402
73.44 5546
73.46 5590
73.48 5578
73.50 5446
73.52 5367
73.54 5527
73.56 5441
73.58 5495
73.60 5567
73.62 5515
73.64 5578
73.66 5471
73.68 5425
73.70 5580
73.72 5528
73.74 5602
73.76 5481
73.78 5390
73.80 5624
73.82 5682
73.84 5559
73.86 5480
73.88 5625
73.90 5545
73.92 5576
73.94 5523
73.96 5567
73.98 5695
74.00 5375
74.02 5611
74.04 5601
74.06 5571
74.08 5759
74.10 5681
74.12 5610
74.14 5714
74.16 5655
74.18 5664
74.20 5595
74.22 5638
74.24 5543
74.26 5655
74.28 5627
74.30 5917
74.32 5672
74.34 5707
74.36 5671
74.38 5759
74.40 5690
74.42 5697
74.44 5696
74.46 5624
74.48 5722
74.50 5495
74.52 5612
74.54 5535
74.56 5638
74.58 5591
74.60 5557
74.62 5640
74.64 5520
74.66 5584
74.68 5655
74.70 5591
74.72 5489
74.74 5518
74.76 5576
74.78 5701
74.80 5598
74.82 5504
74.84 5478
74.86 5586
74.88 5645
74.90 5545
74.92 5531
74.94 5620
74.96 5614
74.98 5609
75.00 5602
75.02 5601
75.04 5538
75.06 5591
75.08 5557
75.10 5794
75.12 5606
75.14 5689
75.16 5709
75.18 5760
75.20 5730
75.22 5595
75.24 5583
75.26 5646
75.28 5644
75.30 5527
75.32 5718
75.34 5481
75.36 5683
75.38 5661
75.40 5576
75.42 5719
75.44 5672
75.46 5494
75.48 5631
75.50 5748
75.52 5530
75.54 5699
75.56 5625
75.58 5651
75.60 5570
75.62 5648
75.64 5583
75.66 5686
75.68 5622
75.70 5729
75.72 5596
75.74 5742
75.76 5674
75.78 5559
75.80 5603
75.82 5581
75.84 5633
75.86 5566
75.88 5570
75.90 5564
75.92 5673
75.94 5726
75.96 5657
75.98 5716
76.00 5660
76.02 5489
76.04 5725
76.06 5641
76.08 5724
76.10 5632
76.12 5673
76.14 5681
76.16 5494
76.18 5615
76.20 5686
76.22 5627
76.24 5507
76.26 5675
76.28 5668
76.30 5711
76.32 5702
76.34 5653
76.36 5577
76.38 5676
76.40 5595
76.42 5766
76.44 5663
76.46 5662
76.48 5716
76.50 5722
76.52 5714
76.54 5725
76.56 5742
76.58 5749
76.60 5589
76.62 5755
76.64 5670
76.66 5760
76.68 5706
76.70 5591
76.72 5770
76.74 5707
76.76 5756
76.78 5717
76.80 5684
76.82 5690
76.84 5687
76.86 5676
76.88 5733
76.90 5600
76.92 5649
76.94 5635
76.96 5714
76.98 5703
77.00 5709
77.02 5726
77.04 5801
77.06 5660
77.08 5739
77.10 5713
77.12 5741
77.14 5749
77.16 5601
77.18 5696
77.20 5711
77.22 5643
77.24 5718
77.26 5669
77.28 5725
77.30 5603
77.32 5710
77.34 5845
77.36 5756
77.38 5697
77.40 5599
77.42 5783
77.44 5645
77.46 5713
77.48 5828
77.50 5774
77.52 5786
77.54 5665
77.56 5677
77.58 5579
77.60 5687
77.62 5750
77.64 5605
77.66 5741
77.68 5853
77.70 5710
77.72 5609
77.74 5645
77.76 5797
77.78 5769
77.80 5799
77.82 5591
77.84 5795
77.86 5774
77.88 5651
77.90 5737
77.92 5790
77.94 5719
77.96 5683
77.98 5674
78.00 5801
78.02 5851
78.04 5665
78.06 5797
78.08 5719
78.10 5839
78.12 5662
78.14 5738
78.16 6012
78.18 5800
78.20 5778
78.22 5605
78.24 5822
78.26 5829
78.28 5753
78.30 5602
78.32 5769
78.34 5771
78.36 5822
78.38 5791
78.40 5773
78.42 5773
78.44 5686
78.46 5739
78.48 5815
78.50 5752
78.52 5719
78.54 5719
78.56 5768
78.58 5684
78.60 5691
78.62 5649
78.64 5816
78.66 5742
78.68 5704
78.70 5757
78.72 5906
78.74 5952
78.76 5737
78.78 5722
78.80 5724
78.82 5801
78.84 5752
78.86 5830
78.88 5748
78.90 5834
78.92 5896
78.94 5847
78.96 5837
78.98 5827
79.00 5826
79.02 5799
79.04 5920
79.06 5950
79.08 5923
79.10 5755
79.12 5929
79.14 5776
79.16 5982
79.18 5922
79.20 5887
79.22 5822
79.24 5907
79.26 5955
79.28 5833
79.30 5792
79.32 6020
79.34 5928
79.36 5928
79.38 5843
79.40 5841
79.42 5870
79.44 5825
79.46 5867
79.48 5920
79.50 5977
79.52 5912
79.54 5998
79.56 5887
79.58 5811
79.60 5934
79.62 5808
79.64 5921
79.66 5849
79.68 5709
79.70 5964
79.72 5858
79.74 5889
79.76 5828
79.78 5848
79.80 5934
79.82 5892
79.84 5949
79.86 5965
79.88 5926
79.90 5775
79.92 5789
79.94 5850
79.96 5933
79.98 5815
80.00 5909